<?xml version="1.0" encoding="UTF-8"?>
<kml xmlns="http://www.opengis.net/kml/2.2">
  <Document>
    <name>Koramangala VIBK 560095</name>
    <Style id="poly-880E4F-1200-156-normal">
      <LineStyle>
        <color>ff4f0e88</color>
        <width>1.2</width>
      </LineStyle>
      <PolyStyle>
        <color>9c4f0e88</color>
        <fill>1</fill>
        <outline>1</outline>
      </PolyStyle>
    </Style>
    <Style id="poly-880E4F-1200-156-highlight">
      <LineStyle>
        <color>ff4f0e88</color>
        <width>1.8</width>
      </LineStyle>
      <PolyStyle>
        <color>9c4f0e88</color>
        <fill>1</fill>
        <outline>1</outline>
      </PolyStyle>
    </Style>
    <StyleMap id="poly-880E4F-1200-156">
      <Pair>
        <key>normal</key>
        <styleUrl>#poly-880E4F-1200-156-normal</styleUrl>
      </Pair>
      <Pair>
        <key>highlight</key>
        <styleUrl>#poly-880E4F-1200-156-highlight</styleUrl>
      </Pair>
    </StyleMap>
    <Placemark>
      <name>Koramangala VIBK 560095</name>
      <description>need to create new Sector ID</description>
      <styleUrl>#poly-880E4F-1200-156</styleUrl>
      <Polygon>
        <outerBoundaryIs>
          <LinearRing>
            <tessellate>1</tessellate>
            <coordinates>
              77.62556,12.936121,0
              77.627019,12.93508,0
              77.627652,12.935608,0
              77.628138,12.934957,0
              77.62803,12.934884,0
              77.628891,12.933906,0
              77.628598,12.933656,0
              77.629248,12.932911,0
              77.629087,12.932662,0
              77.628846,12.93243,0
              77.629495,12.931031,0
              77.629441,12.930676,0
              77.629974,12.9305274,0
              77.6316263,12.9300882,0
              77.631993,12.93004,0
              77.633077,12.930461,0
              77.633152,12.930085,0
              77.633672,12.930116,0
              77.634047,12.930861,0
              77.634031,12.931661,0
              77.634289,12.932111,0
              77.6356281,12.9314476,0
              77.637894,12.930228,0
              77.638237,12.930103,0
              77.638559,12.930072,0
              77.6391016,12.9298399,0
              77.6398365,12.9295549,0
              77.6399009,12.9295105,0
              77.640233,12.929308,0
              77.640796,12.929188,0
              77.641832,12.929329,0
              77.643058,12.9287775,0
              77.643945,12.928555,0
              77.6446995,12.9286102,0
              77.644997,12.92866,0
              77.6451394,12.9290494,0
              77.6433369,12.930116,0
              77.644324,12.9312244,0
              77.6447102,12.9321865,0
              77.6483151,12.9328139,0
              77.6535079,12.9339223,0
              77.6521346,12.9358881,0
              77.6500103,12.938084,0
              77.6461693,12.942141,0
              77.6452037,12.9432076,0
              77.64353,12.944295,0
              77.6421997,12.9450688,0
              77.6399923,12.9459047,0
              77.6367737,12.9406765,0
              77.6358724,12.9394009,0
              77.6348854,12.9387316,0
              77.6337052,12.9385225,0
              77.6320959,12.9385016,0
              77.6300359,12.9385434,0
              77.6286734,12.9383448,0
              77.6285876,12.9385434,0
              77.6283193,12.9388048,0
              77.6278794,12.9390872,0
              77.62774,12.9395682,0
              77.6275683,12.9399655,0
              77.6273752,12.9402687,0
              77.6271231,12.9405301,0
              77.6270158,12.9407759,0
              77.6270104,12.9411052,0
              77.6269031,12.9413353,0
              77.6266885,12.9414921,0
              77.6261521,12.9417117,0
              77.6260448,12.9429455,0
              77.6249183,12.9422973,0
              77.623899,12.9437716,0
              77.622794,12.9425012,0
              77.6216567,12.9435625,0
              77.6201547,12.9447231,0
              77.6197684,12.9439807,0
              77.6189531,12.9442003,0
              77.6187385,12.9434997,0
              77.618084,12.9434893,0
              77.6176227,12.9436461,0
              77.6175476,12.9434684,0
              77.616936,12.9436252,0
              77.6164211,12.9437716,0
              77.615949,12.9437089,0
              77.615949,12.9419417,0
              77.6159919,12.9411366,0
              77.6156486,12.9403524,0
              77.6159812,12.9402687,0
              77.6158632,12.939976,0
              77.6165283,12.9398087,0
              77.6180518,12.9393904,0
              77.6173437,12.9363998,0
              77.6169146,12.9363371,0
              77.6159919,12.9361907,0
              77.615274,12.93588,0
              77.6158095,12.9351973,0
              77.616325,12.9345,0
              77.616905,12.933987,0
              77.61816,12.9336,0
              77.618664,12.933632,0
              77.6191033,12.933702,0
              77.6197899,12.9337334,0
              77.622953,12.933569,0
              77.623328,12.933496,0
              77.623929,12.93472,0
              77.625326,12.9359816,0
              77.62556,12.936121,0
            </coordinates>
          </LinearRing>
        </outerBoundaryIs>
      </Polygon>
    </Placemark>
  </Document>
</kml>
